#x,T,xh2o,S_LBL,S_SLW,S_SLW1,q_LBL,q_SLW,q_SLW1
#[m],[K],[],[kW/m3],[kW/m2]
    0.000000000000000E+000,    0.500000000000000E+003,    0.000000000000000E+000,    0.684620735583456E-312,    0.000000000000000E+000,    0.000000000000000E+000,    0.000000000000000E+000,   -0.788908692789585E+002,   -0.951759944448701E+002
    0.100000000000000E-001,    0.503141587485880E+003,    0.314158748587956E-002,    0.684620735583456E-312,   -0.273220878909181E-001,    0.638139284445531E-001,    0.000000000000000E+000,   -0.788861284829819E+002,   -0.951759930823564E+002
    0.300000000000000E-001,    0.509424638433144E+003,    0.942463843314401E-002,    0.517106821914120E-312,   -0.663471008610008E-001,    0.197091711762933E+000,    0.000000000000000E+000,   -0.788769603950036E+002,   -0.951772578201287E+002
    0.500000000000000E-001,    0.515707317311821E+003,    0.157073173118207E-001,    0.517106821914120E-312,   -0.557622758843154E-001,    0.337821938507483E+000,    0.000000000000000E+000,   -0.788684832297381E+002,   -0.951811748828041E+002
    0.700000000000000E-001,    0.521989376092505E+003,    0.219893760925051E-001,    0.106099792117405E-315,    0.107350785287928E-001,    0.485897538354020E+000,    0.000000000000000E+000,   -0.788616334240474E+002,   -0.951878914585955E+002
    0.900000000000000E-001,    0.528270566770273E+003,    0.282705667702733E-001,    0.000000000000000E+000,    0.124696163697535E+000,    0.641200091260559E+000,    0.000000000000000E+000,   -0.788572535112449E+002,   -0.951975524920554E+002
    0.110000000000000E+000,    0.534550641374472E+003,    0.345506413744723E-001,    0.517106821914120E-312,    0.273610065104320E+000,    0.803600068365605E+000,    0.000000000000000E+000,   -0.788559699485625E+002,   -0.952103004566925E+002
    0.130000000000000E+000,    0.540829351978510E+003,    0.408293519785100E-001,    0.517106821914120E-312,    0.445396914052367E+000,    0.972957074864626E+000,    0.000000000000000E+000,   -0.788581881578608E+002,   -0.952262751326833E+002
    0.150000000000000E+000,    0.547106450709643E+003,    0.471064507096427E-001,    0.517106821914120E-312,    0.630328329014535E+000,    0.114912009598288E+001,    0.000000000000000E+000,   -0.788641300421807E+002,   -0.952456133897258E+002
    0.170000000000000E+000,    0.553381689758760E+003,    0.533816897587605E-001,    0.000000000000000E+000,    0.819354414887789E+000,    0.133049384816331E+001,    0.000000000000000E+000,   -0.788739195175198E+002,   -0.952684495940809E+002
    0.190000000000000E+000,    0.559654821390171E+003,    0.596548213901707E-001,    0.212199564472184E-316,    0.100537238026803E+001,    0.151654947266213E+001,    0.000000000000000E+000,   -0.788875171311114E+002,   -0.952948859247635E+002
    0.210000000000000E+000,    0.565925597951378E+003,    0.659255979513779E-001,    0.000000000000000E+000,    0.118875221874773E+001,    0.170814138900733E+001,    0.000000000000000E+000,   -0.789047925793075E+002,   -0.953250132184050E+002
    0.230000000000000E+000,    0.572193771882861E+003,    0.721937718828606E-001,    0.000000000000000E+000,    0.136875113184734E+001,    0.190505589631887E+001,    0.000000000000000E+000,   -0.789256609488003E+002,   -0.953589397127367E+002
    0.250000000000000E+000,    0.578459095727845E+003,    0.784590957278449E-001,    0.517106821914120E-312,    0.154544406553180E+001,    0.210707283218089E+001,    0.000000000000000E+000,   -0.789500412370737E+002,   -0.953967692895325E+002
    0.270000000000000E+000,    0.584721322142073E+003,    0.847213221420735E-001,    0.000000000000000E+000,    0.171888428116879E+001,    0.231396571234325E+001,    0.000000000000000E+000,   -0.789778597022353E+002,   -0.954386013471141E+002
    0.290000000000000E+000,    0.590980203903570E+003,    0.909802039035699E-001,    0.000000000000000E+000,    0.189022304014140E+001,    0.252550187834236E+001,    0.000000000000000E+000,   -0.790090568265593E+002,   -0.954845306758480E+002
    0.310000000000000E+000,    0.597235493922399E+003,    0.972354939223993E-001,    0.000000000000000E+000,    0.206217089770911E+001,    0.274144265260089E+001,    0.000000000000000E+000,   -0.790436088072504E+002,   -0.955346473367766E+002
    0.330000000000000E+000,    0.603486945250423E+003,    0.103486945250423E+000,    0.517106821914120E-312,    0.222734274796514E+001,    0.296364162144430E+001,    0.000000000000000E+000,   -0.790814895612161E+002,   -0.955890343568588E+002
    0.350000000000000E+000,    0.609734311091045E+003,    0.109734311091045E+000,    0.212199564472184E-316,    0.238470603074259E+001,    0.319152205736685E+001,    0.000000000000000E+000,   -0.791225672321660E+002,   -0.956478137698011E+002
    0.370000000000000E+000,    0.615977344808961E+003,    0.115977344808961E+000,    0.000000000000000E+000,    0.254005155637553E+001,    0.342316275013491E+001,    0.000000000000000E+000,   -0.791667268679260E+002,   -0.957110977206698E+002
    0.390000000000000E+000,    0.622215799939889E+003,    0.122215799939889E+000,    0.517106821647324E-312,    0.269201184168550E+001,    0.365826425924146E+001,    0.000000000000000E+000,   -0.792139173212819E+002,   -0.957789583123546E+002
    0.410000000000000E+000,    0.628449430200303E+003,    0.128449430200303E+000,    0.000000000000000E+000,    0.284960543262448E+001,    0.389652441391664E+001,    0.000000000000000E+000,   -0.792641434443095E+002,   -0.958514616037245E+002
    0.430000000000000E+000,    0.634677989497153E+003,    0.134677989497153E+000,    0.000000000000000E+000,    0.300963455774338E+001,    0.413763841665619E+001,    0.000000000000000E+000,   -0.793174538171552E+002,   -0.959286675580772E+002
    0.450000000000000E+000,    0.640901231937583E+003,    0.140901231937583E+000,    0.000000000000000E+000,    0.316574699354629E+001,    0.438129895417110E+001,    0.000000000000000E+000,   -0.793738321411637E+002,   -0.960106299937396E+002
    0.470000000000000E+000,    0.647118911838637E+003,    0.147118911838637E+000,    0.000000000000000E+000,    0.331663415103749E+001,    0.462719631551798E+001,    0.000000000000000E+000,   -0.794332054138515E+002,   -0.960973965369639E+002
    0.490000000000000E+000,    0.653330783736961E+003,    0.153330783736961E+000,    0.000000000000000E+000,    0.346272776013604E+001,    0.487501851732539E+001,    0.000000000000000E+000,   -0.794954899216219E+002,   -0.961890085772611E+002
    0.510000000000000E+000,    0.659536602398486E+003,    0.159536602398486E+000,    0.000000000000000E+000,    0.361087259967518E+001,    0.512445143618832E+001,    0.000000000000000E+000,   -0.795606481964701E+002,   -0.962855012253165E+002
    0.530000000000000E+000,    0.665736122828120E+003,    0.165736122828120E+000,    0.000000000000000E+000,    0.375421330530946E+001,    0.537517894845598E+001,    0.000000000000000E+000,   -0.796286374243001E+002,   -0.963869032736329E+002
    0.550000000000000E+000,    0.671929100279410E+003,    0.171929100279410E+000,    0.000000000000000E+000,    0.389396679218002E+001,    0.562688307778163E+001,    0.000000000000000E+000,   -0.796993781457796E+002,   -0.964932371600602E+002
    0.570000000000000E+000,    0.678115290264210E+003,    0.178115290264210E+000,    0.000000000000000E+000,    0.403485493301050E+001,    0.587924415093085E+001,    0.000000000000000E+000,   -0.797728376716563E+002,   -0.966045189343714E+002
    0.590000000000000E+000,    0.684294448562333E+003,    0.184294448562333E+000,    0.000000000000000E+000,    0.417647588838723E+001,    0.613194096245332E+001,    0.000000000000000E+000,   -0.798490169862026E+002,   -0.967207582280662E+002
    0.610000000000000E+000,    0.690466331231190E+003,    0.190466331231190E+000,    0.000000000000000E+000,    0.431607859755467E+001,    0.638465094890699E+001,    0.000000000000000E+000,   -0.799278878218295E+002,   -0.968419582275879E+002
    0.630000000000000E+000,    0.696630694615420E+003,    0.196630694615420E+000,    0.000000000000000E+000,    0.445926266886675E+001,    0.663705037338078E+001,    0.000000000000000E+000,   -0.800094326999744E+002,   -0.969681156511605E+002
    0.650000000000000E+000,    0.702787295356512E+003,    0.202787295356512E+000,    0.000000000000000E+000,    0.458315359141227E+001,    0.688869763848635E+001,    0.000000000000000E+000,   -0.800936081401394E+002,   -0.970992202151093E+002
    0.670000000000000E+000,    0.708935890402412E+003,    0.208935890402412E+000,    0.000000000000000E+000,    0.468369830437587E+001,    0.713869313128857E+001,    0.000000000000000E+000,   -0.801801284994020E+002,   -0.972352545965600E+002
    0.690000000000000E+000,    0.715076237017113E+003,    0.215076237017113E+000,    0.000000000000000E+000,    0.479223928679759E+001,    0.738662457877355E+001,    0.000000000000000E+000,   -0.802687661777905E+002,   -0.973761836354345E+002
    0.710000000000000E+000,    0.721208092790247E+003,    0.221208092790247E+000,    0.000000000000000E+000,    0.490228503747170E+001,    0.763214341245185E+001,    0.000000000000000E+000,   -0.803595675055506E+002,   -0.975219628590135E+002
    0.730000000000000E+000,    0.727331215646646E+003,    0.227331215646646E+000,    0.000000000000000E+000,    0.501222276843498E+001,    0.787490409930580E+001,    0.000000000000000E+000,   -0.804525243556496E+002,   -0.976725408460381E+002
    0.750000000000000E+000,    0.733445363855905E+003,    0.233445363855905E+000,    0.000000000000000E+000,    0.511925319931282E+001,    0.811456420933658E+001,    0.000000000000000E+000,   -0.805475985401256E+002,   -0.978278592916142E+002
    0.770000000000000E+000,    0.739550296041922E+003,    0.239550296041922E+000,    0.000000000000000E+000,    0.522265830730730E+001,    0.835078449739540E+001,    0.000000000000000E+000,   -0.806447193789317E+002,   -0.979878530736130E+002
    0.790000000000000E+000,    0.745645771192426E+003,    0.245645771192426E+000,    0.000000000000000E+000,    0.532260597620754E+001,    0.858322899866336E+001,    0.000000000000000E+000,   -0.807438052739298E+002,   -0.981524503208472E+002
    0.810000000000000E+000,    0.751731548668497E+003,    0.251731548668497E+000,    0.000000000000000E+000,    0.541474146169221E+001,    0.881156513692521E+001,    0.000000000000000E+000,   -0.808447452893061E+002,   -0.983215724832897E+002
    0.830000000000000E+000,    0.757807388214060E+003,    0.257807388214060E+000,    0.000000000000000E+000,    0.550068953500039E+001,    0.903546384456356E+001,    0.000000000000000E+000,   -0.809474285627812E+002,   -0.984951344045753E+002
    0.850000000000000E+000,    0.763873049965373E+003,    0.263873049965373E+000,    0.000000000000000E+000,    0.558527645214033E+001,    0.925459969298698E+001,    0.000000000000000E+000,   -0.810517903644090E+002,   -0.986730443970081E+002
    0.870000000000000E+000,    0.769928294460496E+003,    0.269928294460496E+000,    0.000000000000000E+000,    0.566914193028696E+001,    0.946865103200230E+001,    0.000000000000000E+000,   -0.811577912966256E+002,   -0.988552043192607E+002
    0.890000000000000E+000,    0.775972882648746E+003,    0.275972882648746E+000,    0.000000000000000E+000,    0.575613780952117E+001,    0.967730013644921E+001,    0.000000000000000E+000,   -0.812654294011359E+002,   -0.990415096569262E+002
    0.910000000000000E+000,    0.782006575900130E+003,    0.282006575900129E+000,    0.000000000000000E+000,    0.584921100031048E+001,    0.988023335823510E+001,    0.000000000000000E+000,   -0.813747551611862E+002,   -0.992318496060417E+002
    0.930000000000000E+000,    0.788029136014769E+003,    0.288029136014769E+000,    0.000000000000000E+000,    0.595036843073744E+001,    0.100771412817366E+002,    0.000000000000000E+000,   -0.814858773528690E+002,   -0.994261071596696E+002
    0.950000000000000E+000,    0.794040325232304E+003,    0.294040325232304E+000,    0.000000000000000E+000,    0.606918740275154E+001,    0.102677188803663E+002,    0.000000000000000E+000,   -0.815989704757409E+002,   -0.996241591975762E+002
    0.970000000000000E+000,    0.800039906241276E+003,    0.300039906241276E+000,    0.000000000000000E+000,    0.622434374069669E+001,    0.104517965950907E+002,    0.000000000000000E+000,   -0.817143247954022E+002,   -0.998258757628665E+002
    0.990000000000000E+000,    0.806027642188501E+003,    0.306027642188501E+000,    0.000000000000000E+000,    0.621326441156641E+001,    0.106485680628850E+002,    0.000000000000000E+000,   -0.818309233233651E+002,   -0.100030997228426E+003
    0.101000000000000E+001,    0.812003296688415E+003,    0.312003296688415E+000,    0.000000000000000E+000,    0.623857763735250E+001,    0.108384390794833E+002,    0.000000000000000E+000,   -0.819480059989866E+002,   -0.100239891349190E+003
    0.103000000000000E+001,    0.817966633832411E+003,    0.317966633832411E+000,    0.000000000000000E+000,    0.627270845834090E+001,    0.110210992060417E+002,    0.000000000000000E+000,   -0.820658028472347E+002,   -0.100452417466027E+003
    0.105000000000000E+001,    0.823917418198149E+003,    0.323917418198149E+000,    0.000000000000000E+000,    0.630664341567079E+001,    0.111962442733166E+002,    0.000000000000000E+000,   -0.821843210638848E+002,   -0.100668428819342E+003
    0.107000000000000E+001,    0.829855414858853E+003,    0.329855414858853E+000,    0.000000000000000E+000,    0.634015888701013E+001,    0.113635766348507E+002,    0.000000000000000E+000,   -0.823035238907901E+002,   -0.100887772680057E+003
    0.109000000000000E+001,    0.835780389392581E+003,    0.335780389392581E+000,    0.000000000000000E+000,    0.636940272742418E+001,    0.115228054173338E+002,    0.000000000000000E+000,   -0.824233498707642E+002,   -0.101110290485484E+003
    0.111000000000000E+001,    0.841692107891483E+003,    0.341692107891483E+000,    0.000000000000000E+000,    0.639814895266412E+001,    0.116736467671747E+002,    0.000000000000000E+000,   -0.825437423487235E+002,   -0.101335817980025E+003
    0.113000000000000E+001,    0.847590336971037E+003,    0.347590336971037E+000,    0.000000000000000E+000,    0.642053587753840E+001,    0.118158240925524E+002,    0.000000000000000E+000,   -0.826646319488785E+002,   -0.101564185360594E+003
    0.115000000000000E+001,    0.853474843779257E+003,    0.353474843779257E+000,    0.000000000000000E+000,    0.643799551052626E+001,    0.119490683004624E+002,    0.000000000000000E+000,   -0.827859110342114E+002,   -0.101795217426671E+003
    0.117000000000000E+001,    0.859345396005891E+003,    0.359345396005891E+000,    0.000000000000000E+000,    0.645136639669470E+001,    0.120731180285427E+002,    0.000000000000000E+000,   -0.829074865862191E+002,   -0.102028733734863E+003
    0.119000000000000E+001,    0.865201761891588E+003,    0.365201761891588E+000,    0.000000000000000E+000,    0.645690333570098E+001,    0.121877198717446E+002,    0.000000000000000E+000,   -0.830292355228915E+002,   -0.102264548757871E+003
    0.121000000000000E+001,    0.871043710237051E+003,    0.371043710237051E+000,    0.000000000000000E+000,    0.645905797234293E+001,    0.122926286042194E+002,    0.000000000000000E+000,   -0.831510430585444E+002,   -0.102502472047753E+003
    0.123000000000000E+001,    0.876871010412163E+003,    0.376871010412163E+000,    0.000000000000000E+000,    0.645835309303684E+001,    0.123876073971213E+002,    0.000000000000000E+000,   -0.832728404834415E+002,   -0.102742308403386E+003
    0.125000000000000E+001,    0.882683432365090E+003,    0.382683432365090E+000,    0.000000000000000E+000,    0.645727265704586E+001,    0.124724280333983E+002,    0.000000000000000E+000,   -0.833945828533188E+002,   -0.102983858042049E+003
    0.127000000000000E+001,    0.888480746631366E+003,    0.388480746631366E+000,    0.000000000000000E+000,    0.646575697213288E+001,    0.125468711210777E+002,    0.000000000000000E+000,   -0.835163301798557E+002,   -0.103226916775062E+003
    0.129000000000000E+001,    0.894262724342951E+003,    0.394262724342951E+000,    0.000000000000000E+000,    0.648687310368814E+001,    0.126107263070687E+002,    0.000000000000000E+000,   -0.836382470460485E+002,   -0.103471276187471E+003
    0.131000000000000E+001,    0.900029137237265E+003,    0.400029137237265E+000,    0.000000000000000E+000,    0.652870441166626E+001,    0.126637841408436E+002,    0.000000000000000E+000,   -0.837605656041075E+002,   -0.103716723845992E+003
    0.133000000000000E+001,    0.905779757666200E+003,    0.405779757666200E+000,    0.000000000000000E+000,    0.646861137923351E+001,    0.127037961071062E+002,    0.000000000000000E+000,   -0.838828239115709E+002,   -0.103963052943465E+003
    0.135000000000000E+001,    0.911514358605109E+003,    0.411514358605109E+000,    0.000000000000000E+000,    0.641483638383518E+001,    0.127318014052784E+002,    0.000000000000000E+000,   -0.840040649788320E+002,   -0.104210002755512E+003
    0.137000000000000E+001,    0.917232713661765E+003,    0.417232713661765E+000,    0.000000000000000E+000,    0.636051327761963E+001,    0.127476457386266E+002,    0.000000000000000E+000,   -0.841242925925526E+002,   -0.104457333590245E+003
    0.139000000000000E+001,    0.922934597085303E+003,    0.422934597085303E+000,    0.000000000000000E+000,    0.630744113405488E+001,    0.127511846876293E+002,    0.000000000000000E+000,   -0.842434861132304E+002,   -0.104704802833204E+003
    0.141000000000000E+001,    0.928619783775128E+003,    0.428619783775128E+000,    0.000000000000000E+000,    0.623001718448595E+001,    0.127422836675981E+002,    0.000000000000000E+000,   -0.843614328559432E+002,   -0.104952165145012E+003
    0.143000000000000E+001,    0.934288049289805E+003,    0.434288049289805E+000,    0.000000000000000E+000,    0.614807696439569E+001,    0.127208178819946E+002,    0.000000000000000E+000,   -0.844778689001812E+002,   -0.105199172657991E+003
    0.145000000000000E+001,    0.939939169855915E+003,    0.439939169855915E+000,    0.000000000000000E+000,    0.606626233441710E+001,    0.126866722715008E+002,    0.000000000000000E+000,   -0.845927367822204E+002,   -0.105445575171704E+003
    0.147000000000000E+001,    0.945572922376896E+003,    0.445572922376896E+000,    0.000000000000000E+000,    0.598106062138672E+001,    0.126397414587808E+002,    0.000000000000000E+000,   -0.847059886945527E+002,   -0.105691120347308E+003
    0.149000000000000E+001,    0.951189084441845E+003,    0.451189084441845E+000,    0.000000000000000E+000,    0.589759532107842E+001,    0.125799296887443E+002,    0.000000000000000E+000,   -0.848175900600246E+002,   -0.105935553900669E+003
    0.151000000000000E+001,    0.956787434334299E+003,    0.456787434334299E+000,    0.000000000000000E+000,    0.580625684296289E+001,    0.125071507639781E+002,    0.000000000000000E+000,   -0.849274676985524E+002,   -0.106178619794131E+003
    0.153000000000000E+001,    0.962367751040992E+003,    0.462367751040992E+000,    0.000000000000000E+000,    0.571330619594503E+001,    0.124213279748495E+002,    0.000000000000000E+000,   -0.850355198824704E+002,   -0.106420060426852E+003
    0.155000000000000E+001,    0.967929814260573E+003,    0.467929814260573E+000,    0.000000000000000E+000,    0.561984175916076E+001,    0.123223940235938E+002,    0.000000000000000E+000,   -0.851417105295603E+002,   -0.106659616823613E+003
    0.157000000000000E+001,    0.973473404412312E+003,    0.473473404412312E+000,    0.000000000000000E+000,    0.552688833024417E+001,    0.122102909414710E+002,    0.000000000000000E+000,   -0.852460215462457E+002,   -0.106897028821961E+003
    0.159000000000000E+001,    0.978998302644761E+003,    0.478998302644761E+000,    0.000000000000000E+000,    0.543087015111905E+001,    0.120849699977861E+002,    0.000000000000000E+000,   -0.853484090927476E+002,   -0.107132035257563E+003
